;RAW4.00
[RawHeader]
Date=09/12/2023
EstimatedTotalTime=592.078
FurtherDQLReading=0
HardwareIndicator=65519
MeasuredTotalTime=592.078
MeasurementFlag=1
NumberOfMeasuredRanges=1
NumberOfRanges=1
Time=13:06:14

[VarInfo]
Type=USER
Flags=0
Value=Lab Manager

[VarInfo]
Type=SAMPLEID
Flags=0
Value=Commander Sample ID

[VarInfo]
Type=COMMENT
Flags=0
Value=

[VarInfo]
Type=UTF
Flags=0
Value=

[VarInfo]
Type=CREATOR
Flags=0
Value=BrmlToV4Converter

[VarInfo]
Type=CREATOR_VERSION
Flags=0
Value=7.5.0.0

[HardwareConfiguration]
AbsorptionFactor=9999
ActivateAbsorber=0
Alpha1=1.5406
Alpha2=1.54439
AlphaAverage=1.54184
AlphaRatio=0.5
Analyzer=0
Anode=Cu
AntiScatteringSlit=10.5
BeamOpticsFlags=0
Beta=1.39222
BetaRelativeIntensity=0
DeactivateAbsorber=0
DetectorSlit=9999
DivergenceSlit=10.5
GoniometerControl=0
GoniometerDiameter=282
GoniometerModel=256
GoniometerStage=7
Monochromator=0
NearSampleSlit=9999
PrimarySollerSlit=9999
SampleChanger=0
SecondSollerSlit=9999
SynchronousAxis=0
ThinFilmAttachment=9999
WaveUnit=A

[RangeHeader]
ActuallyUsedLambda=1.54184
AdditionalDetectorMask=257
DataRecordLength=4
DelayTime=0
DisplayPlaneNumber=0
EstimatedScanTime=592
ExtraParametersMask=0
GeneratorCurrent=10
GeneratorVoltage=30
Increment=0.0202147
Increment3=0
NumberOfCompletedData=1336
NumberOfCounts=1
NumberOfDetectors=0
NumberOfDrives=3
NumberOfEncoderDrives=0
NumberOfMeasuredData=1336
NumberOfVaryingParameters=0
RangeStartTime=0
RotationSpeed=0
ScanMode=1
ScanType=LockedCoupledHiScan
SimulatedMeasConditions=0
SlitChangerIn=0
SmootingWidth=0
Start=3.00107
Steps=1336
SynchronousRotation=0
Time=1

[VarInfo]
Type=PSD_DISCRIM
Flags=0
Value=0.312;1.022

[VarInfo]
Type=COUNTS_MODIFIED
Flags=0
Value=CPS_VDO

[PSD]
ActualTwoTheta=9999
FirstUsedChannel=0
FixedPSD=0
PSDOpening=5.82184
PSDType=5

[Drive]
DriveFlags=1
DriveName=2Theta
DriveNumber=2
DriveOffset=0
OffsetIndex=0
OscillationAmplitude=0
OscillationSpeed=0
StartPosition=3.00107

[Drive]
DriveFlags=1
DriveName=Theta
DriveNumber=1
DriveOffset=0
OffsetIndex=0
OscillationAmplitude=0
OscillationSpeed=0
StartPosition=1.50054

[Drive]
DriveFlags=1
DriveName=Phi
DriveNumber=3
DriveOffset=0
OffsetIndex=0
OscillationAmplitude=0
OscillationSpeed=0
StartPosition=359.993

[Data]
     Angle,       PSD,
   3.00107,         0,
   3.02129,   1.44664,
    3.0415,   1.12115,
   3.06172,   2.70156,
   3.08193,   1.94982,
   3.10215,   2.19833,
   3.12236,   1.43507,
   3.14258,  0.679484,
   3.16279,   0.93429,
     3.183,   2.14831,
   3.20322,   1.47844,
   3.22343,   1.73318,
   3.24365,  0.987795,
   3.26386,   1.33584,
   3.28408,   1.98115,
   3.30429,   1.51166,
   3.32451,   1.78089,
   3.34472,   1.84932,
   3.36494,   1.23429,
   3.38515,  0.923299,
   3.40537,  0.760101,
   3.42558,   2.44392,
    3.4458,  0.939182,
   3.46601,    1.9252,
   3.48623,   0.94523,
   3.50644,   1.20933,
   3.52665,   1.27015,
   3.54687,   1.34154,
   3.56708,   1.38413,
    3.5873,   1.52172,
   3.60751,   1.75866,
   3.62773,   1.08768,
   3.64794,   1.19271,
   3.66816,   2.50448,
   3.68837,   1.52537,
   3.70859,   1.18797,
    3.7288,   1.67716,
   3.74902,   1.70842,
   3.76923,   2.08586,
   3.78945,   1.72484,
   3.80966,   3.30035,
   3.82988,   3.54714,
   3.85009,   2.81068,
   3.87031,   3.84917,
   3.89052,   4.55046,
   3.91073,   4.66162,
   3.93095,   5.13503,
   3.95116,   4.75555,
   3.97138,   6.54685,
   3.99159,   7.17107,
   4.01181,   5.88833,
   4.03202,   6.54003,
   4.05224,   6.85286,
   4.07245,   6.61661,
   4.09267,   8.18462,
   4.11288,   7.80757,
    4.1331,   8.85672,
   4.15331,   9.96062,
   4.17353,   10.0721,
   4.19374,   11.9529,
   4.21396,   14.1802,
   4.23417,   15.7347,
   4.25438,   18.5555,
    4.2746,   19.7038,
   4.29481,   25.5556,
   4.31503,   29.8431,
   4.33524,   34.8623,
   4.35546,   42.2496,
   4.37567,   53.8536,
   4.39589,   68.2024,
    4.4161,   66.8551,
   4.43632,   42.0965,
   4.45653,   19.8824,
   4.47675,   10.3491,
   4.49696,   6.96009,
   4.51718,   5.53341,
   4.53739,   4.78833,
   4.55761,   3.84293,
   4.57782,   4.73776,
   4.59803,    3.9951,
   4.61825,   3.65358,
   4.63846,   3.60307,
   4.65868,    3.5835,
   4.67889,   2.87874,
   4.69911,    2.9734,
   4.71932,   3.40426,
   4.73954,   2.39317,
   4.75975,   2.47806,
   4.77997,   2.35672,
   4.80018,   2.86905,
    4.8204,   1.85427,
   4.84061,   2.44059,
   4.86083,   2.75665,
   4.88104,   2.29633,
   4.90126,   1.84897,
   4.92147,   2.01706,
   4.94169,    1.8589,
    4.9619,   2.05199,
   4.98211,   2.11818,
   5.00233,   1.98873,
   5.02254,   1.68793,
   5.04276,   2.18438,
   5.06297,   1.56439,
   5.08319,   2.07081,
    5.1034,   2.21501,
   5.12362,   1.60393,
   5.14383,   1.84298,
   5.16405,   1.56439,
   5.18426,    1.8579,
   5.20448,   1.65624,
   5.22469,   1.23342,
   5.24491,    1.3561,
   5.26512,   1.39057,
   5.28534,   1.51806,
   5.30555,   1.77146,
   5.32576,   1.11959,
   5.34598,   1.09076,
   5.36619,   1.33637,
   5.38641,   1.14041,
   5.40662,   1.35152,
   5.42684,   1.40909,
   5.44705,   1.43776,
   5.46727,   1.28832,
   5.48748,   1.05697,
    5.5077,   1.34717,
   5.52791,  0.774233,
   5.54813,   1.45913,
   5.56834,   1.01786,
   5.58856,   1.11737,
   5.60877,   1.12932,
   5.62899,   1.47714,
    5.6492,   1.14463,
   5.66941,    1.0552,
   5.68963,   1.23106,
   5.70984,  0.938568,
   5.73006,   1.12765,
   5.75027,   1.12765,
   5.77049,  0.837972,
    5.7907,  0.924658,
   5.81092,   1.00487,
   5.83113,   1.19665,
   5.85135,  0.684236,
   5.87156,  0.769276,
   5.89178,  0.740784,
   5.91199,   1.29417,
   5.93221,  0.955364,
   5.95242,  0.926685,
   5.97264,   1.06776,
   5.99285,  0.983463,
   6.01306,   1.01093,
   6.03328,   1.29255,
   6.05349,   1.49579,
   6.07371,   1.23053,
   6.09392,     1.286,
   6.11414,   1.23053,
   6.13435,   1.50306,
   6.15457,   1.66907,
   6.17478,   2.10301,
     6.195,   3.05892,
   6.21521,   3.40397,
   6.23543,   2.99332,
   6.25564,   1.61704,
   6.27586,  0.879332,
   6.29607,  0.798444,
   6.31629,  0.718599,
    6.3365,  0.852686,
   6.35672,  0.502105,
   6.37693,  0.708923,
   6.39714,  0.526361,
   6.41736,  0.551062,
   6.43757,  0.629785,
   6.45779,  0.762775,
     6.478,  0.959133,
   6.49822,  0.563455,
   6.51843,  0.717125,
   6.53865,  0.618565,
   6.55886,   0.62214,
   6.57908,  0.716716,
   6.59929,   0.51194,
   6.61951,   0.64029,
   6.63972,  0.429995,
   6.65994,  0.706633,
   6.68015,  0.556778,
   6.70037,  0.299973,
   6.72058,  0.597946,
   6.74079,  0.500233,
   6.76101,   0.32882,
   6.78122,  0.447962,
   6.80144,   0.66713,
   6.82165,  0.543587,
   6.84187,  0.442074,
   6.86208,  0.617712,
    6.8823,  0.641714,
   6.90251,  0.585902,
   6.92273,  0.439427,
   6.94294,  0.409442,
   6.96316,  0.531007,
   6.98337,  0.463587,
   7.00359,  0.486926,
    7.0238,  0.410544,
   7.04402,  0.554248,
   7.06423,  0.499875,
   7.08444,    0.5932,
   7.10466,  0.642696,
   7.12487,  0.618893,
   7.14509,  0.353489,
    7.1653,  0.447282,
   7.18552,  0.546902,
   7.20573,  0.825241,
   7.22595,  0.517363,
   7.24616,   0.81369,
   7.26638,  0.625757,
   7.28659,  0.976428,
   7.30681,  0.720697,
   7.32702,  0.764025,
   7.34724,  0.790441,
   7.36745,   1.10277,
   7.38767,   1.21391,
   7.40788,   1.37776,
    7.4281,   1.76902,
   7.44831,   1.88945,
   7.46852,   2.38542,
   7.48874,   3.30278,
   7.50895,   4.07487,
   7.52917,   4.64853,
   7.54938,   6.28786,
    7.5696,    9.2422,
   7.58981,   10.2351,
   7.61003,     11.29,
   7.63024,   8.07494,
   7.65046,   4.46239,
   7.67067,   2.56953,
   7.69089,    1.3583,
    7.7111,   1.55852,
   7.73132,    0.7467,
   7.75153,   1.05056,
   7.77175,  0.636268,
   7.79196,  0.760469,
   7.81217,  0.757533,
   7.83239,  0.846559,
    7.8526,  0.694613,
   7.87282,  0.606026,
   7.89303,  0.477315,
   7.91325,  0.488842,
   7.93346,  0.511065,
   7.95368,  0.300691,
   7.97389,   0.49352,
   7.99411,  0.489538,
   8.01432,   0.48861,
   8.03454,  0.233573,
   8.05475,  0.315965,
   8.07497,  0.483571,
   8.09518,  0.504359,
    8.1154,  0.562658,
   8.13561,  0.270407,
   8.15582,  0.462113,
   8.17604,  0.481539,
   8.19625,  0.609148,
   8.21647,  0.370457,
   8.23668,  0.369271,
    8.2569,  0.370457,
   8.27711,  0.390859,
   8.29733,  0.369102,
   8.31754,  0.452574,
   8.33776,  0.241974,
   8.35797,  0.323214,
   8.37819,  0.590614,
    8.3984,  0.345751,
   8.41862,   0.46462,
   8.43883,  0.564861,
   8.45905,  0.342182,
   8.47926,  0.459856,
   8.49947,  0.559077,
   8.51969,  0.557587,
    8.5399,   0.31848,
   8.56012,  0.459241,
   8.58033,  0.576988,
   8.60055,  0.557092,
   8.62076,  0.578528,
   8.64098,  0.683627,
   8.66119,  0.624215,
   8.68141,  0.860917,
   8.70162,   1.28856,
   8.72184,   1.52086,
   8.74205,   2.13273,
   8.76227,   1.95067,
   8.78248,   1.80392,
    8.8027,   1.72335,
   8.82291,   1.23713,
   8.84313,  0.810469,
   8.86334,  0.619365,
   8.88355,   0.49765,
   8.90377,  0.380534,
   8.92398,  0.531845,
    8.9442,  0.286861,
   8.96441,  0.551307,
   8.98463,  0.246823,
   9.00484,  0.379086,
   9.02506,  0.359373,
   9.04527,  0.360589,
   9.06549,  0.337752,
    9.0857,  0.354587,
   9.10592,  0.484217,
   9.12613,  0.446228,
   9.14635,    0.4479,
   9.16656,  0.338035,
   9.18678,  0.464436,
   9.20699,  0.480624,
    9.2272,  0.276713,
   9.24742,  0.625672,
   9.26763,  0.441288,
   9.28785,  0.479241,
   9.30806,   0.78453,
   9.32828,  0.674238,
   9.34849,  0.602326,
   9.36871,  0.383143,
   9.38892,  0.326152,
   9.40914,  0.235174,
   9.42935,  0.307536,
   9.44957,  0.288514,
   9.46978,  0.361515,
      9.49,  0.340421,
   9.51021,  0.445077,
   9.53043,  0.319567,
   9.55064,  0.358194,
   9.57085,  0.178812,
   9.59107,  0.268324,
   9.61128,  0.337187,
    9.6315,  0.282383,
   9.65171,  0.281166,
   9.67193,    0.2638,
   9.69214,  0.369175,
   9.71236,    0.3863,
   9.73257,  0.435736,
   9.75279,   0.62746,
     9.773,   1.00895,
   9.79322,  0.940093,
   9.81343,   0.94119,
   9.83365,  0.834343,
   9.85386,  0.552375,
   9.87408,  0.397478,
   9.89429,  0.379028,
   9.91451,  0.259025,
   9.93472,  0.257834,
   9.95493,  0.392637,
   9.97515,  0.222603,
   9.99536,  0.461976,
   10.0156,  0.170647,
   10.0358,  0.171168,
    10.056,  0.271382,
   10.0762,   0.36924,
   10.0964,  0.286072,
   10.1167,  0.269953,
   10.1369,  0.304614,
   10.1571,  0.201781,
   10.1773,  0.218433,
   10.1975,  0.285215,
   10.2177,  0.366633,
   10.2379,  0.316638,
   10.2582,  0.315933,
   10.2784,   0.28101,
   10.2986,  0.181763,
   10.3188,  0.164875,
    10.339,  0.231335,
   10.3592,  0.213787,
   10.3794,  0.278038,
   10.3997,  0.196621,
   10.4199,  0.196477,
   10.4401,  0.326985,
   10.4603,  0.130985,
   10.4805,  0.146184,
   10.5007,   0.24128,
   10.5209,  0.306061,
   10.5412,  0.242498,
   10.5614,  0.162016,
   10.5816,  0.144924,
   10.6018,  0.225356,
    10.622,   0.20896,
   10.6422,  0.303337,
   10.6624,  0.287474,
   10.6827,  0.159367,
   10.7029,  0.237615,
   10.7231,  0.317944,
   10.7433,  0.334552,
   10.7635,  0.237448,
   10.7837,  0.269107,
    10.804,   0.17376,
   10.8242,  0.235618,
   10.8444,  0.298345,
   10.8646,  0.235124,
   10.8848,  0.188428,
    10.905,  0.156312,
   10.9252,  0.186534,
   10.9455,  0.264808,
   10.9657,  0.202359,
   10.9859,  0.279704,
   11.0061,  0.295756,
   11.0263,  0.248025,
   11.0465,   0.36999,
   11.0667,  0.260554,
    11.087,  0.490454,
   11.1072,  0.366963,
   11.1274,  0.352394,
   11.1476,  0.459487,
   11.1678,  0.718391,
    11.188,  0.612649,
   11.2082,  0.564388,
   11.2285,  0.394183,
   11.2487,  0.422363,
   11.2689,   0.37711,
   11.2891,  0.255661,
   11.3093,  0.303834,
   11.3295,  0.180891,
   11.3497,  0.283552,
     11.37,  0.224379,
   11.3902,  0.194462,
   11.4104,  0.104432,
   11.4306,  0.224304,
   11.4508,  0.193622,
    11.471,  0.177725,
   11.4913,  0.383047,
   11.5115,  0.251196,
   11.5317,  0.266324,
   11.5519,  0.220916,
   11.5721,  0.279735,
   11.5923,  0.205581,
   11.6125,  0.206053,
   11.6328,  0.263886,
    11.653,  0.218618,
   11.6732,  0.246566,
   11.6934,  0.202988,
   11.7136,  0.188064,
   11.7338,  0.335761,
    11.754,  0.160008,
   11.7743,  0.187942,
   11.7945,  0.374076,
   11.8147,  0.172595,
   11.8349,  0.229685,
   11.8551,  0.244431,
   11.8753,  0.230053,
   11.8955,  0.243884,
   11.9158,  0.313907,
    11.936,  0.228369,
   11.9562,  0.213552,
   11.9764,  0.242488,
   11.9966,  0.184844,
   12.0168,  0.296806,
   12.0371,  0.169925,
   12.0573,  0.225853,
   12.0775,  0.210347,
   12.0977,  0.267107,
   12.1179,  0.225003,
   12.1381,  0.252258,
   12.1583,  0.323239,
   12.1786,  0.238095,
   12.1988,  0.361773,
    12.219,  0.387917,
   12.2392,  0.277169,
   12.2594,  0.345394,
   12.2796,  0.457046,
   12.2998,  0.609395,
   12.3201,  0.773444,
   12.3403,  0.879602,
   12.3605,   1.22432,
   12.3807,   1.52183,
   12.4009,    2.0603,
   12.4211,   1.58989,
   12.4413,  0.966331,
   12.4616,  0.791078,
   12.4818,  0.653294,
    12.502,   0.43251,
   12.5222,  0.460375,
   12.5424,   0.29825,
   12.5626,  0.364821,
   12.5828,    0.4195,
   12.6031,  0.311712,
   12.6233,  0.391609,
   12.6435,  0.480635,
   12.6637,  0.427868,
   12.6839,  0.452855,
   12.7041,  0.523807,
   12.7244,  0.538205,
   12.7446,  0.723538,
   12.7648,  0.914412,
    12.785,   1.15432,
   12.8052,   1.38821,
   12.8254,   2.23832,
   12.8456,   5.92905,
   12.8659,   9.46351,
   12.8861,   6.39153,
   12.9063,   4.65059,
   12.9265,   1.75866,
   12.9467,    1.0255,
   12.9669,  0.905581,
   12.9871,  0.508428,
   13.0074,  0.404723,
   13.0276,  0.549134,
   13.0478,  0.429958,
    13.068,  0.635469,
   13.0882,   0.66007,
   13.1084,  0.668766,
   13.1286,  0.868404,
   13.1489,  0.830721,
   13.1691,  0.853715,
   13.1893,   0.74189,
   13.2095,  0.627664,
   13.2297,  0.434158,
   13.2499,  0.281166,
   13.2701,  0.345757,
   13.2904,    0.3701,
   13.3106,  0.332287,
   13.3308,  0.216832,
    13.351,  0.215544,
   13.3712,  0.241107,
   13.3914,  0.316798,
   13.4117,  0.239279,
   13.4319,  0.239481,
   13.4521,   0.24002,
   13.4723,  0.327251,
   13.4925,  0.250536,
   13.5127,  0.263431,
   13.5329,  0.337563,
   13.5532,  0.250396,
   13.5734,  0.213075,
   13.5936,  0.250047,
   13.6138,  0.186547,
    13.634,  0.235835,
   13.6542,  0.234601,
   13.6744,  0.308771,
   13.6947,  0.186186,
   13.7149,  0.335227,
   13.7351,  0.320945,
   13.7553,  0.271345,
   13.7755,  0.453484,
   13.7957,  0.355434,
   13.8159,   0.62713,
   13.8362,   0.68598,
   13.8564,  0.657529,
   13.8766,  0.711062,
   13.8968,  0.489718,
    13.917,  0.462329,
   13.9372,  0.219355,
   13.9574,  0.350548,
   13.9777,  0.229669,
   13.9979,  0.230851,
   14.0181,  0.229545,
   14.0383,   0.31403,
   14.0585,  0.265575,
   14.0787,  0.250603,
    14.099,  0.275938,
   14.1192,  0.301627,
   14.1394,  0.264082,
   14.1596,  0.286099,
   14.1798,  0.263729,
      14.2,  0.334048,
   14.2202,  0.286022,
   14.2405,  0.335476,
   14.2607,  0.274251,
   14.2809,  0.177725,
   14.3011,  0.191037,
   14.3213,  0.166846,
   14.3415,  0.178669,
   14.3617,  0.226856,
    14.382,  0.118421,
   14.4022,  0.236716,
   14.4224,  0.166581,
   14.4426,  0.165789,
   14.4628,   0.27208,
    14.483,  0.177866,
   14.5032,  0.176512,
   14.5235,  0.342967,
   14.5437,  0.297229,
   14.5639,  0.236592,
   14.5841,  0.199785,
   14.6043,  0.224525,
   14.6245,  0.246923,
   14.6447,  0.117459,
    14.665,  0.213214,
   14.6852,  0.236404,
   14.7054,  0.187886,
   14.7256,  0.247963,
   14.7458, 0.0704755,
    14.766,  0.199524,
   14.7863,  0.306841,
   14.8065,    0.1644,
   14.8267,  0.221663,
   14.8469,  0.246277,
   14.8671,  0.175043,
   14.8873,  0.211095,
   14.9075,  0.223407,
   14.9278,  0.256596,
    14.948,  0.163246,
   14.9682,  0.152338,
   14.9884,  0.244869,
   15.0086,  0.174815,
   15.0288,  0.186907,
    15.049,  0.370819,
   15.0693,  0.196947,
   15.0895,  0.151783,
   15.1097,  0.198021,
   15.1299,  0.254741,
   15.1501,  0.197815,
   15.1703,  0.231582,
   15.1905,  0.173597,
   15.2108,  0.209397,
    15.231,  0.162066,
   15.2512,  0.207034,
   15.2714,  0.185553,
   15.2916,  0.138842,
   15.3118,  0.161857,
    15.332,  0.266664,
   15.3523,  0.137987,
   15.3725,  0.183842,
   15.3927,  0.219606,
   15.4129,  0.252847,
   15.4331,  0.195232,
   15.4533,  0.299587,
   15.4736,  0.308494,
   15.4938,  0.424699,
    15.514,  0.450423,
   15.5342,  0.229743,
   15.5544,  0.216757,
   15.5746,  0.344351,
   15.5948,  0.331093,
   15.6151,  0.216757,
   15.6353,  0.298285,
   15.6555,   0.30818,
   15.6757,  0.353477,
   15.6959,  0.183466,
   15.7161,  0.456331,
   15.7363,  0.524247,
   15.7566,  0.768067,
   15.7768,  0.821187,
    15.797,   1.01948,
   15.8172,   1.15077,
   15.8374,  0.895785,
   15.8576,  0.826497,
   15.8778,   0.62634,
   15.8981,  0.328749,
   15.9183,   0.33957,
   15.9385,  0.386995,
   15.9587,   0.23794,
   15.9789,  0.214953,
   15.9991,   0.38582,
   16.0193,   0.42807,
   16.0396,  0.393583,
   16.0598,  0.362941,
     16.08,    0.3623,
   16.1002,  0.438344,
   16.1204,  0.542765,
   16.1406,  0.382625,
   16.1609,   0.41576,
   16.1811,  0.395566,
   16.2013,  0.326193,
   16.2215,  0.323918,
   16.2417,  0.269682,
   16.2619,   0.15653,
   16.2821,  0.235795,
   16.3024,   0.15771,
   16.3226,  0.212381,
   16.3428,  0.167419,
    16.363,  0.213338,
   16.3832,  0.223448,
   16.4034,  0.212011,
   16.4236,  0.123111,
   16.4439,  0.233283,
   16.4641,  0.277238,
   16.4843,  0.324484,
   16.5045,  0.156297,
   16.5247,  0.199562,
   16.5449,  0.289976,
   16.5651,  0.166466,
   16.5854,  0.254932,
   16.6056,  0.189458,
   16.6258,  0.232995,
    16.646,  0.199414,
   16.6662,   0.30083,
   16.6864,  0.288398,
   16.7066,  0.298973,
   16.7269,  0.378729,
   16.7471,  0.399123,
   16.7673,   0.30822,
   16.7875,  0.232534,
   16.8077,  0.253491,
   16.8279,  0.341159,
   16.8482,  0.398336,
   16.8684,  0.363616,
   16.8886,  0.297066,
   16.9088,  0.409198,
    16.929,  0.495718,
   16.9492,  0.791981,
   16.9694,   0.80456,
   16.9897,  0.898233,
   17.0099,  0.776222,
   17.0301,  0.692135,
   17.0503,  0.558521,
   17.0705,  0.327901,
   17.0907,  0.362369,
   17.1109,  0.295543,
   17.1312,  0.196693,
   17.1514,  0.274321,
   17.1716,  0.207924,
   17.1918,   0.21733,
    17.212,  0.185449,
   17.2322,  0.163195,
   17.2524,  0.218388,
   17.2727,  0.229643,
   17.2929,  0.228307,
   17.3131,  0.195454,
   17.3333,  0.218069,
   17.3535,  0.260859,
   17.3737,  0.162761,
   17.3939,   0.18482,
   17.4142,  0.162055,
   17.4344,  0.129488,
   17.4546,  0.217329,
   17.4748,  0.162918,
    17.495,  0.226495,
   17.5152,  0.292403,
   17.5355,  0.377946,
   17.5557,  0.345052,
   17.5759,  0.292332,
   17.5961,  0.226658,
   17.6163,  0.237109,
   17.6365,  0.151105,
   17.6567,  0.203894,
    17.677,  0.204727,
   17.6972,    0.2596,
   17.7174,  0.183353,
   17.7376,  0.139273,
   17.7578,  0.204334,
    17.778,  0.214471,
   17.7982,  0.246289,
   17.8185,  0.172029,
   17.8387,  0.278746,
   17.8589,  0.202248,
   17.8791,  0.160738,
   17.8993,  0.128652,
   17.9195,  0.171168,
   17.9397,  0.235637,
     17.96,  0.170517,
   17.9802,  0.202153,
   18.0004,  0.202874,
   18.0206,  0.202393,
   18.0408,  0.255229,
    18.061,  0.213552,
   18.0813,   0.26618,
   18.1015,  0.265738,
   18.1217,  0.234796,
   18.1419,  0.244827,
   18.1621,   0.16907,
   18.1823,  0.180403,
   18.2025,  0.148181,
   18.2228,  0.200771,
    18.243,  0.159028,
   18.2632,  0.190518,
   18.2834,  0.232362,
   18.3036,   0.16955,
   18.3238,  0.137532,
    18.344,  0.179553,
   18.3643,   0.19007,
   18.3845,  0.147312,
   18.4047,  0.252062,
   18.4249,  0.231653,
   18.4451,  0.136725,
   18.4653,  0.230948,
   18.4855,  0.242183,
   18.5058,  0.241672,
    18.526,   0.35692,
   18.5462,  0.284168,
   18.5664,  0.441108,
   18.5866,    0.5771,
   18.6068,  0.744984,
    18.627,  0.668251,
   18.6473,   0.69252,
   18.6675,  0.536259,
   18.6877,  0.472173,
   18.7079,  0.292224,
   18.7281,  0.167219,
   18.7483,  0.313097,
   18.7686,  0.271288,
   18.7888,  0.208877,
    18.809,  0.177422,
   18.8292,  0.134859,
   18.8494,  0.135392,
   18.8696,  0.187771,
   18.8898,  0.125064,
   18.9101,  0.187422,
   18.9303,  0.238597,
   18.9505,  0.134704,
   18.9707,  0.124572,
   18.9909,  0.114059,
   19.0111,   0.17611,
   19.0313,  0.175948,
   19.0516,  0.134053,
   19.0718,  0.113901,
    19.092,  0.186685,
   19.1122,  0.186556,
   19.1324,   0.25738,
   19.1526,  0.268168,
   19.1728,  0.123684,
   19.1931,  0.154357,
   19.2133,  0.165026,
   19.2335,  0.154464,
   19.2537,  0.133074,
   19.2739,  0.102834,
   19.2941,  0.102928,
   19.3143,  0.144034,
   19.3346,   0.11304,
   19.3548,   0.17406,
    19.375,  0.132983,
   19.3952,  0.215162,
   19.4154,   0.17398,
   19.4356,  0.143212,
   19.4559,  0.153547,
   19.4761,  0.133044,
   19.4963,  0.184088,
   19.5165,  0.143212,
   19.5367,  0.163709,
   19.5569,  0.132922,
   19.5771,  0.152953,
   19.5974,  0.101761,
   19.6176,  0.152537,
   19.6378,  0.101899,
    19.658, 0.0920441,
   19.6782,   0.19317,
   19.6984, 0.0812611,
   19.7186, 0.0813716,
   19.7389,  0.142304,
   19.7591,  0.121809,
   19.7793,  0.162706,
   19.7995,  0.141534,
   19.8197,  0.131217,
   19.8399,  0.161826,
   19.8601,  0.142239,
   19.8804,  0.232624,
   19.9006,  0.131424,
   19.9208,   0.16168,
    19.941, 0.0907813,
   19.9612,  0.151541,
   19.9814,  0.181808,
   20.0016,  0.141215,
   20.0219,  0.191822,
   20.0421,  0.161571,
   20.0623,  0.201645,
   20.0825,  0.100936,
   20.1027,   0.15137,
   20.1229,   0.22176,
   20.1432,  0.161462,
   20.1634,  0.232049,
   20.1836,  0.161171,
   20.2038,  0.191649,
    20.224,  0.100891,
   20.2442,   0.15103,
   20.2644,   0.17136,
   20.2847,  0.191649,
   20.3049,  0.271794,
   20.3251,  0.181399,
   20.3453,    0.2016,
   20.3655,  0.201238,
   20.3857,  0.231736,
   20.4059,  0.211633,
   20.4262,  0.201148,
   20.4464,  0.171168,
   20.4666,  0.231736,
   20.4868,  0.211158,
    20.507,  0.201329,
   20.5272,  0.130922,
   20.5474,  0.180871,
   20.5677,  0.100642,
   20.5879,  0.171168,
   20.6081,  0.110507,
   20.6283,  0.191133,
   20.6485,  0.130805,
   20.6687, 0.0803511,
   20.6889,  0.130746,
   20.7092,  0.140804,
   20.7294,  0.130512,
   20.7496,  0.070386,
   20.7698,  0.170899,
     20.79,  0.130454,
   20.8102,  0.191005,
   20.8305,  0.130658,
   20.8507,  0.180507,
   20.8709,  0.170861,
   20.8911,  0.150692,
   20.9113, 0.0701658,
   20.9315, 0.0602903,
   20.9517,  0.100439,
    20.972,  0.150288,
   20.9922,  0.120527,
   21.0124,  0.130541,
   21.0326,  0.180225,
   21.0528,  0.170708,
    21.073,  0.100394,
   21.0932,  0.140112,
   21.1135,   0.16063,
   21.1337,  0.160594,
   21.1539,  0.130017,
   21.1741,  0.180669,
   21.1943,  0.140457,
   21.2145, 0.0699781,
   21.2347,  0.200653,
    21.255,  0.150456,
   21.2752, 0.0899518,
   21.2954,  0.130366,
   21.3156, 0.0701971,
   21.3358, 0.0699313,
    21.356,  0.220521,
   21.3762,  0.120284,
   21.3965, 0.0599278,
   21.4167,  0.160343,
   21.4369,  0.130221,
   21.4571,  0.179743,
   21.4773,  0.110187,
   21.4975,  0.160236,
   21.5178,  0.149719,
    21.538, 0.0701031,
   21.5582,  0.150154,
   21.5784,  0.189602,
   21.5986,  0.180185,
   21.6188,   0.15012,
    21.639, 0.0997463,
   21.6593,  0.250145,
   21.6795,  0.180064,
   21.6997,  0.209374,
   21.7199,  0.240085,
   21.7401,  0.160021,
   21.7603,   0.18935,
   21.7805,  0.139987,
   21.8008,  0.179984,
    21.821,   0.29884,
   21.8412,   0.18994,
   21.8614,  0.179904,
   21.8816,  0.219052,
   21.9018,  0.189898,
    21.922,  0.339742,
   21.9423,  0.388147,
   21.9625,  0.249755,
   21.9827,  0.309627,
   22.0029,  0.328359,
   22.0231,  0.299639,
   22.0433,  0.179703,
   22.0635,  0.179026,
   22.0838,  0.179703,
    22.104,  0.209607,
   22.1242,  0.238595,
   22.1444,  0.109794,
   22.1646,  0.109745,
   22.1848,   0.16893,
   22.2051,  0.199537,
   22.2253,  0.219442,
   22.2455,  0.198653,
   22.2657,  0.199493,
   22.2859,  0.139614,
   22.3061, 0.0694978,
   22.3263,  0.119642,
   22.3466,  0.189392,
   22.3668,  0.119113,
    22.387,  0.179424,
   22.4072,  0.209235,
   22.4274,  0.208401,
   22.4476,  0.189307,
   22.4678, 0.0896321,
   22.4881,  0.138873,
   22.5083,  0.119536,
   22.5285,  0.149321,
   22.5487,   0.10909,
   22.5689,  0.209095,
   22.5891,  0.129382,
   22.6093,   0.23791,
   22.6296,  0.169192,
   22.6498,  0.189014,
     22.67, 0.0693749,
   22.6902, 0.0995029,
   22.7104,  0.179026,
   22.7306,  0.128782,
   22.7508,  0.188972,
   22.7711, 0.0994147,
   22.7913,  0.138658,
   22.8115,  0.208771,
   22.8317,  0.188846,
   22.8519,  0.138597,
   22.8721,  0.139119,
   22.8924,  0.168893,
   22.9126,  0.108849,
   22.9328,  0.119245,
    22.953,  0.129125,
   22.9732, 0.0692525,
   22.9934,  0.208586,
   23.0136,  0.158852,
   23.0339,  0.158222,
   23.0541,  0.109211,
   23.0743,  0.129039,
   23.0945,  0.187805,
   23.1147,  0.119113,
   23.1349,  0.228198,
   23.1551,  0.158082,
   23.1754,  0.148825,
   23.1956,  0.138873,
   23.2158,  0.217267,
    23.236,  0.247987,
   23.2562,  0.257792,
   23.2764,    0.2764,
   23.2966,  0.277622,
   23.3169, 0.0892161,
   23.3371,  0.118431,
   23.3573,  0.247768,
   23.3775,   0.19817,
   23.3977,  0.197298,
   23.4179,  0.188262,
   23.4381,  0.158501,
   23.4584,  0.108466,
   23.4786,  0.158466,
   23.4988,  0.128725,
    23.519,  0.157769,
   23.5392, 0.0890979,
   23.5594, 0.0890783,
   23.5797, 0.0887063,
   23.5999,  0.168259,
   23.6201,  0.197908,
   23.6403, 0.0985192,
   23.6605,  0.158291,
   23.6807,  0.158291,
   23.7009,  0.226544,
   23.7212, 0.0988885,
   23.7414, 0.0988885,
   23.7616,  0.236342,
   23.7818, 0.0790934,
    23.802,  0.128498,
   23.8222,  0.196865,
   23.8424, 0.0988667,
   23.8627,  0.148202,
   23.8829,  0.137745,
   23.9031,  0.138352,
   23.9233,  0.197603,
   23.9435,  0.157354,
   23.9637,  0.138291,
   23.9839,  0.138291,
   24.0042, 0.0983033,
   24.0244,  0.128357,
   24.0446,  0.118457,
   24.0648,  0.108134,
    24.085,  0.108562,
   24.1052,  0.138139,
   24.1255,  0.147455,
   24.1457,  0.118379,
   24.1659,   0.10849,
   24.1861,  0.167116,
   24.2063,  0.108466,
   24.2265, 0.0792857,
   24.2467,  0.158466,
    24.267, 0.0996576,
   24.2872,  0.140175,
   24.3074,  0.170098,
   24.3276,  0.120879,
   24.3478,  0.131513,
    24.368,  0.111205,
   24.3882,  0.142562,
   24.4085,  0.102225,
   24.4287,  0.194138,
   24.4489,  0.154393,
   24.4691,  0.103308,
   24.4893,    0.1343,
   24.5095,  0.239262,
   24.5297,  0.198387,
     24.55,  0.219372,
   24.5702,  0.210297,
   24.5904,  0.137208,
   24.6106,  0.137337,
   24.6308,  0.148813,
    24.651,  0.181433,
   24.6712,  0.149558,
   24.6915,  0.107467,
   24.7117,  0.161938,
   24.7319,  0.151215,
   24.7521,  0.119531,
   24.7723, 0.0546103,
   24.7925,  0.218441,
   24.8128, 0.0879548,
    24.833,  0.121504,
   24.8532,  0.187825,
   24.8734,   0.13347,
   24.8936,  0.111724,
   24.9138,  0.190073,
    24.934,  0.112509,
   24.9543,  0.146962,
   24.9745,   0.10182,
   24.9947,  0.147969,
   25.0149,  0.114432,
   25.0351,  0.125907,
   25.0553,  0.138271,
   25.0755,  0.173687,
   25.0958,  0.162191,
    25.116,  0.209942,
   25.1362,  0.152378,
   25.1564,  0.175912,
   25.1766,  0.165265,
   25.1968,  0.154314,
    25.217,  0.154314,
   25.2373,  0.263026,
   25.2575,  0.288398,
   25.2777,  0.228438,
   25.2979,  0.193667,
   25.3181,  0.279907,
   25.3383,  0.316588,
   25.3585,  0.269713,
   25.3788, 0.0986167,
    25.399,  0.098671,
   25.4192,  0.186289,
   25.4394,  0.112396,
   25.4596,  0.199926,
   25.4798,   0.12583,
   25.5001,  0.113886,
   25.5203,   0.10129,
   25.5405,  0.229521,
   25.5607,  0.102593,
   25.5809,  0.256629,
   25.6011, 0.0904673,
   25.6213,  0.129988,
   25.6416,  0.208102,
   25.6618,  0.131014,
    25.682, 0.0790701,
   25.7022,  0.210978,
   25.7224,  0.185973,
   25.7426,  0.146992,
   25.7628,  0.294159,
   25.7831,   0.41761,
   25.8033,  0.881193,
   25.8235,  0.921863,
   25.8437,  0.355378,
   25.8639,  0.632408,
   25.8841,  0.619039,
   25.9043,  0.208005,
   25.9246,  0.223184,
   25.9448, 0.0977036,
    25.965,  0.154787,
   25.9852,  0.155715,
   26.0054,  0.099154,
   26.0256,  0.185727,
   26.0458,  0.172374,
   26.0661,  0.115063,
   26.0863,  0.116031,
   26.1065,  0.116672,
   26.1267,  0.160633,
   26.1469,  0.162005,
   26.1671,  0.133338,
   26.1874,    0.1483,
   26.2076,   0.10471,
   26.2278,  0.120392,
    26.248, 0.0903848,
   26.2682,  0.121616,
   26.2884,  0.183482,
   26.3086,  0.168364,
   26.3289, 0.0772407,
   26.3491,  0.139852,
   26.3693,  0.108925,
   26.3895,  0.141321,
   26.4097, 0.0947783,
   26.4299,   0.23728,
   26.4501,  0.159651,
   26.4704,  0.160681,
   26.4906,  0.144768,
   26.5108,  0.227315,
    26.531,  0.130794,
   26.5512,  0.163612,
   26.5714,  0.132143,
   26.5916,  0.133074,
   26.6119,  0.183181,
   26.6321,  0.134471,
   26.6523, 0.0677176,
   26.6725,   0.13564,
   26.6927,  0.205323,
   26.7129,  0.137881,
   26.7331,  0.120879,
   26.7534, 0.0696907,
   26.7736,  0.122866,
   26.7938,  0.175935,
    26.814,  0.124227,
   26.8342,   0.16093,
   26.8544,  0.286899,
   26.8747,   0.18083,
   26.8949,  0.182227,
   26.9151, 0.0548462,
   26.9353, 0.0921618,
   26.9555,  0.241507,
   26.9757,   0.18647,
   26.9959,  0.225545,
   27.0162,   0.13268,
   27.0364,  0.171168,
   27.0566,  0.134269,
   27.0768,  0.154708,
    27.097,  0.155243,
   27.1172,  0.156667,
   27.1374,  0.157908,
   27.1577,  0.138719,
   27.1779,  0.139956,
   27.1981,  0.120987,
   27.2183,  0.101187,
   27.2385, 0.0408433,
   27.2587,  0.144265,
   27.2789, 0.0827035,
   27.2992,  0.125268,
   27.3194, 0.0842573,
   27.3396, 0.0845751,
   27.3598,  0.106725,
     27.38,  0.150851,
   27.4002,  0.194606,
   27.4204,  0.174753,
   27.4407, 0.0881926,
   27.4609,  0.110676,
   27.4811,  0.134135,
   27.5013, 0.0903242,
   27.5215,  0.113362,
   27.5417,  0.137354,
    27.562,   0.13877,
   27.5822, 0.0232362,
   27.6024,  0.093869,
   27.6226,  0.165921,
   27.6428,   0.21446,
    27.663,  0.192472,
   27.6832, 0.0972797,
   27.7035,  0.171168,
   27.7237,  0.148088,
   27.7439,   0.37434,
   27.7641, 0.0502194,
   27.7843,  0.177457,
   27.8045, 0.0769227,
   27.8247,  0.103153,
    27.845,  0.156258,
   27.8652,  0.158187,
   27.8854,  0.212163,
   27.9056,  0.160738,
   27.9258, 0.0813409,
    27.946,  0.163771,
   27.9662,  0.248072,
   27.9865,  0.167544,
   28.0067,  0.196816,
   28.0269,   0.19881,
   28.0471,  0.115063,
   28.0673,  0.057978,
   28.0875,  0.117091,
   28.1077, 0.0890389,
    28.128, 0.0897517,
   28.1482,  0.241757,
   28.1684,  0.153267,
   28.1886,  0.154428,
   28.2088,  0.218456,
    28.229,  0.221853,
   28.2493,  0.351357,
   28.2695,         0,
   28.2897,  0.229643,
   28.3099, 0.0992167,
   28.3301,  0.233921,
   28.3503,      0.17,
   28.3705,  0.342597,
   28.3908, 0.0346568,
    28.411,  0.211704,
   28.4312,  0.142255,
   28.4514,  0.143968,
   28.4716, 0.0733376,
   28.4918,  0.184856,
    28.512, 0.0748056,
   28.5323,  0.114403,
   28.5525, 0.0769888,
   28.5727,  0.116888,
   28.5929,  0.278299,
   28.6131, 0.0802972,
   28.6333,  0.121974,
   28.6535,  0.041524,
   28.6738,  0.125854,
    28.694,  0.340064,
   28.7142, 0.0434554,
   28.7344, 0.0439236,
   28.7546,   0.17796,
   28.7748,  0.273173,
    28.795,  0.230452,
   28.8153,  0.280287,
   28.8355,  0.143584,
   28.8557,  0.242411,
   28.8759,   0.14752,
   28.8961, 0.0504454,
   28.9163,  0.153407,
   28.9366,  0.467145,
   28.9568,  0.213298,
    28.977,  0.162289,
   28.9972,  0.549583,
   29.0174,  0.169657,
   29.0376,  0.172264,
   29.0578,  0.116786,
   29.0781,  0.300979,
   29.0983,  0.367088,
   29.1185,  0.249144,
   29.1387,  0.257365,
   29.1589,  0.196406,
   29.1791,         0,
   29.1993,    0.0691,
   29.2196,  0.211205,
   29.2398,  0.143737,
     29.26,  0.149238,
   29.2802,  0.228417,
   29.3004,   0.31143,
   29.3206,         0,
   29.3408,  0.165789,
   29.3611,  0.424677,
   29.3813,  0.266411,
   29.4015, 0.0909655,
   29.4217,  0.186858,
   29.4419,  0.392525,
   29.4621,  0.100777,
   29.4823,   0.62286,
   29.5026,  0.438591,
   29.5228,  0.225924,
    29.543,         0,
   29.5632,         0,
   29.5834,  0.128498,
   29.6036,   0.13347,
   29.6239,  0.143278,
   29.6441,   0.14899,
   29.6643,   0.31143,
   29.6845,   0.50769,
   29.7047,  0.177257,
   29.7249,  0.560574,
   29.7451,         0,
   29.7654,         0,
   29.7856,  0.233573,
   29.8058,  0.265361,
    29.826,  0.287474,
   29.8462,         0,
   29.8664,         0,
   29.8866,         0,
   29.9069,         0,
   29.9271,         0,
   29.9473,         0,
   29.9675,         0,
   29.9877,         0,
