;RAW4.00
[RawHeader]
Date=09/12/2023
EstimatedTotalTime=297.764
FurtherDQLReading=0
HardwareIndicator=65519
MeasuredTotalTime=297.764
MeasurementFlag=1
NumberOfMeasuredRanges=1
NumberOfRanges=1
Time=13:27:21

[VarInfo]
Type=USER
Flags=0
Value=Lab Manager

[VarInfo]
Type=SAMPLEID
Flags=0
Value=Commander Sample ID

[VarInfo]
Type=COMMENT
Flags=0
Value=

[VarInfo]
Type=UTF
Flags=0
Value=

[VarInfo]
Type=CREATOR
Flags=0
Value=BrmlToV4Converter

[VarInfo]
Type=CREATOR_VERSION
Flags=0
Value=7.5.0.0

[HardwareConfiguration]
AbsorptionFactor=9999
ActivateAbsorber=0
Alpha1=1.5406
Alpha2=1.54439
AlphaAverage=1.54184
AlphaRatio=0.5
Analyzer=0
Anode=Cu
AntiScatteringSlit=10.5
BeamOpticsFlags=0
Beta=1.39222
BetaRelativeIntensity=0
DeactivateAbsorber=0
DetectorSlit=9999
DivergenceSlit=10.5
GoniometerControl=0
GoniometerDiameter=282
GoniometerModel=256
GoniometerStage=7
Monochromator=0
NearSampleSlit=9999
PrimarySollerSlit=9999
SampleChanger=0
SecondSollerSlit=9999
SynchronousAxis=0
ThinFilmAttachment=9999
WaveUnit=A

[RangeHeader]
ActuallyUsedLambda=1.54184
AdditionalDetectorMask=257
DataRecordLength=4
DelayTime=0
DisplayPlaneNumber=0
EstimatedScanTime=298
ExtraParametersMask=0
GeneratorCurrent=10
GeneratorVoltage=30
Increment=0.0404294
Increment3=0
NumberOfCompletedData=667
NumberOfCounts=1
NumberOfDetectors=0
NumberOfDrives=3
NumberOfEncoderDrives=0
NumberOfMeasuredData=667
NumberOfVaryingParameters=0
RangeStartTime=0
RotationSpeed=0
ScanMode=1
ScanType=LockedCoupledHiScan
SimulatedMeasConditions=0
SlitChangerIn=0
SmootingWidth=0
Start=3.00107
Steps=667
SynchronousRotation=0
Time=1

[VarInfo]
Type=PSD_DISCRIM
Flags=0
Value=0.312;1.022

[VarInfo]
Type=COUNTS_MODIFIED
Flags=0
Value=CPS_VDO

[PSD]
ActualTwoTheta=9999
FirstUsedChannel=0
FixedPSD=0
PSDOpening=5.82184
PSDType=5

[Drive]
DriveFlags=1
DriveName=2Theta
DriveNumber=2
DriveOffset=0
OffsetIndex=0
OscillationAmplitude=0
OscillationSpeed=0
StartPosition=3.00107

[Drive]
DriveFlags=1
DriveName=Theta
DriveNumber=1
DriveOffset=0
OffsetIndex=0
OscillationAmplitude=0
OscillationSpeed=0
StartPosition=1.50054

[Drive]
DriveFlags=1
DriveName=Phi
DriveNumber=3
DriveOffset=0
OffsetIndex=0
OscillationAmplitude=0
OscillationSpeed=0
StartPosition=359.993

[Data]
     Angle,       PSD,
   3.00107,         0,
    3.0415,         0,
   3.08193,   4.16007,
   3.12236,    1.7446,
   3.16279,   2.02486,
   3.20322,   2.06937,
   3.24365,   1.16458,
   3.28408,   2.96006,
   3.32451,   2.20636,
   3.36494,   1.74774,
   3.40537,   1.61909,
    3.4458,   2.87781,
   3.48623,   3.51866,
   3.52665,   4.55634,
   3.56708,   5.53087,
   3.60751,   5.74385,
   3.64794,   6.16252,
   3.68837,    5.7078,
    3.7288,   8.21759,
   3.76923,   8.28792,
   3.80966,   7.03064,
   3.85009,    5.4422,
   3.89052,   6.59619,
   3.93095,   7.68302,
   3.97138,   6.27384,
   4.01181,   6.47984,
   4.05224,   6.49729,
   4.09267,   5.81478,
    4.1331,   6.94089,
   4.17353,   8.81358,
   4.21396,   9.29138,
   4.25438,   9.04297,
   4.29481,   10.5906,
   4.33524,   9.55658,
   4.37567,   10.6106,
    4.4161,   11.0177,
   4.45653,    8.2656,
   4.49696,    7.9935,
   4.53739,   6.70151,
   4.57782,   5.26637,
   4.61825,   4.71215,
   4.65868,    3.9893,
   4.69911,   3.41676,
   4.73954,   2.97295,
   4.77997,   2.96861,
    4.8204,   2.55915,
   4.86083,   2.35892,
   4.90126,   1.94867,
   4.94169,   2.51945,
   4.98211,   1.32554,
   5.02254,   1.25694,
   5.06297,   1.55896,
    5.1034,    1.5411,
   5.14383,   1.37958,
   5.18426,   1.66119,
   5.22469,   1.26299,
   5.26512,   1.45347,
   5.30555,   1.21305,
   5.34598,    1.2757,
   5.38641,   1.32233,
   5.42684,   1.01065,
   5.46727,   1.34846,
    5.5077,   1.04828,
   5.54813,  0.776386,
   5.58856,  0.689098,
   5.62899,  0.941754,
   5.66941,  0.527486,
   5.70984,  0.815735,
   5.75027,  0.953349,
    5.7907,  0.748711,
   5.83113,  0.741331,
   5.87156,  0.854296,
   5.91199,  0.908076,
   5.95242,  0.899819,
   5.99285,  0.953964,
   6.03328,  0.892542,
   6.07371,   1.17738,
   6.11414,   1.28338,
   6.15457,  0.874854,
     6.195,   1.05945,
   6.23543,  0.727293,
   6.27586,  0.798983,
   6.31629,  0.799221,
   6.35672,  0.710643,
   6.39714,  0.735667,
   6.43757,  0.814489,
     6.478,   0.51969,
   6.51843,  0.640153,
   6.55886,  0.435801,
   6.59929,   0.40888,
   6.63972,  0.455448,
   6.68015,  0.578208,
   6.72058,  0.348921,
   6.76101,  0.353141,
   6.80144,  0.496114,
   6.84187,  0.344327,
    6.8823,  0.741096,
   6.92273,  0.511441,
   6.96316,  0.363145,
   7.00359,  0.243213,
   7.04402,  0.502434,
   7.08444,  0.616632,
   7.12487,  0.475086,
    7.1653,  0.472583,
   7.20573,  0.469859,
   7.24616,  0.558418,
   7.28659,  0.766234,
   7.32702,    1.0419,
   7.36745,  0.896726,
   7.40788,    1.0323,
   7.44831,   1.22528,
   7.48874,   1.40538,
   7.52917,   1.50314,
    7.5696,   1.65563,
   7.61003,   1.43404,
   7.65046,   1.30828,
   7.69089,   1.20675,
   7.73132,   1.25524,
   7.77175,  0.526196,
   7.81217,  0.779197,
    7.8526,  0.781839,
   7.89303,  0.560723,
   7.93346,  0.467377,
   7.97389,   0.44997,
   8.01432,   0.53023,
   8.05475,  0.399292,
   8.09518,  0.461473,
   8.13561,  0.333976,
   8.17604,  0.397986,
   8.21647,  0.391314,
    8.2569,  0.369869,
   8.29733,  0.164123,
   8.33776,  0.387134,
   8.37819,  0.386082,
   8.41862,  0.483845,
   8.45905,  0.282243,
   8.49947,  0.280039,
    8.5399,  0.316445,
   8.58033,  0.219346,
   8.62076,  0.237491,
   8.66119,  0.391498,
   8.70162,  0.450616,
   8.74205,  0.470208,
   8.78248,  0.329323,
   8.82291,   0.42563,
   8.86334,   0.46114,
   8.90377,  0.210499,
    8.9442,  0.343866,
   8.98463,  0.302948,
   9.02506,   0.41673,
   9.06549,  0.226541,
   9.10592,  0.297175,
   9.14635,  0.299408,
   9.18678,  0.259867,
    9.2272,  0.184019,
   9.26763,  0.183982,
   9.30806,  0.255685,
   9.34849,  0.346085,
   9.38892,  0.253517,
   9.42935,  0.217081,
   9.46978,  0.216426,
   9.51021,  0.269072,
   9.55064,  0.232823,
   9.59107,  0.321599,
    9.6315,  0.353181,
   9.67193,  0.298908,
   9.71236,  0.298382,
   9.75279,  0.298733,
   9.79322,  0.348175,
   9.83365,  0.398391,
   9.87408,  0.379822,
   9.91451,  0.413079,
   9.95493,  0.290479,
   9.99536,  0.239538,
   10.0358,  0.324097,
   10.0762,  0.168621,
   10.1167,   0.21991,
   10.1571,  0.201625,
   10.1975,  0.284091,
   10.2379,   0.31657,
   10.2784,  0.297312,
   10.3188,  0.198757,
   10.3592,  0.230267,
   10.3997,  0.294706,
   10.4401, 0.0980922,
   10.4805,  0.196399,
   10.5209,  0.209666,
   10.5614,  0.129655,
   10.6018,   0.14518,
   10.6422, 0.0957358,
   10.6827,  0.302894,
   10.7231,  0.269764,
   10.7635,  0.318157,
    10.804,  0.188983,
   10.8444,  0.219824,
   10.8848,  0.094095,
   10.9252,  0.156115,
   10.9657,  0.202386,
   11.0061, 0.0931179,
   11.0465,  0.277576,
    11.087,  0.199579,
   11.1274,  0.290846,
   11.1678,  0.305841,
   11.2082,  0.273949,
   11.2487,  0.210959,
   11.2891,  0.301117,
   11.3295,  0.212135,
     11.37,  0.298859,
   11.4104,  0.209062,
   11.4508,   0.25403,
   11.4913,  0.148268,
   11.5317,  0.148072,
   11.5721,  0.147439,
   11.6125,  0.264174,
    11.653,  0.218785,
   11.6934,  0.203273,
   11.7338,  0.102083,
   11.7743,  0.115763,
   11.8147,  0.186938,
   11.8551,  0.201092,
   11.8955,  0.128778,
    11.936,  0.114142,
   11.9764,  0.199114,
   12.0168,  0.183929,
   12.0573,  0.212327,
   12.0977,  0.126141,
   12.1381,  0.321858,
   12.1786,  0.210631,
    12.219,  0.333769,
   12.2594,  0.318331,
   12.2998,   0.37549,
   12.3403,  0.358856,
   12.3807,  0.315845,
   12.4211,  0.247145,
   12.4616,  0.354329,
    12.502,  0.272602,
   12.5424,   0.27116,
   12.5828,  0.270465,
   12.6233,  0.161815,
   12.6637,  0.213856,
   12.7041,  0.227053,
   12.7446,  0.267719,
    12.785,  0.291877,
   12.8254,  0.132319,
   12.8659,  0.250814,
   12.9063,  0.144654,
   12.9467,  0.327799,
   12.9871,  0.222059,
   13.0276,  0.208844,
    13.068,  0.168973,
   13.1084,  0.219722,
   13.1489,  0.297958,
   13.1893,  0.270992,
   13.2297,  0.127903,
   13.2701,  0.255623,
   13.3106,  0.191581,
    13.351,  0.318485,
   13.3914,  0.241089,
   13.4319,  0.214226,
   13.4723, 0.0756624,
   13.5127,  0.213178,
   13.5532,  0.212702,
   13.5936,   0.21288,
    13.634,  0.136337,
   13.6744,  0.284361,
   13.7149,  0.210703,
   13.7553,  0.284047,
   13.7957,  0.220717,
   13.8362,   0.20783,
   13.8766,  0.195073,
    13.917,  0.232122,
   13.9574,  0.169399,
   13.9979,  0.242227,
   14.0383,  0.229899,
   14.0787,   0.24028,
   14.1192,   0.18021,
   14.1596,  0.179921,
      14.2,  0.155122,
   14.2405,  0.191199,
   14.2809,  0.178726,
   14.3213,  0.166457,
   14.3617,  0.107449,
   14.4022,  0.189683,
   14.4426,  0.165819,
    14.483,  0.213478,
   14.5235,  0.142149,
   14.5639,  0.201192,
   14.6043, 0.0825932,
   14.6447,  0.176498,
   14.6852,  0.129347,
   14.7256,  0.176567,
    14.766,  0.199873,
   14.8065,  0.117142,
   14.8469, 0.0818607,
   14.8873,  0.151888,
   14.9278,   0.22176,
   14.9682,  0.151908,
   15.0086, 0.0817115,
    15.049,  0.174415,
   15.0895,  0.221529,
   15.1299,  0.116458,
   15.1703,   0.18537,
   15.2108,  0.127606,
   15.2512,  0.150438,
   15.2916,  0.150051,
    15.332,  0.173829,
   15.3725,  0.149685,
   15.4129,  0.161033,
   15.4533,  0.161178,
   15.4938,  0.114568,
   15.5342,  0.172403,
   15.5746,  0.286384,
   15.6151,  0.217208,
   15.6555,  0.228378,
   15.6959,  0.284494,
   15.7363,  0.297005,
   15.7768,  0.147899,
   15.8172,  0.306631,
   15.8576,  0.295499,
   15.8981,  0.238702,
   15.9385,  0.272354,
   15.9789,  0.192795,
   16.0193,   0.28238,
   16.0598,  0.191704,
   16.1002,  0.226303,
   16.1406,  0.202599,
   16.1811,  0.225365,
   16.2215,  0.179862,
   16.2619,  0.178965,
   16.3024,  0.157379,
   16.3428,  0.279633,
   16.3832,  0.212388,
   16.4236,  0.156594,
   16.4641,  0.122443,
   16.5045,  0.223372,
   16.5449,  0.166947,
   16.5854,  0.222154,
   16.6258,  0.133194,
   16.6662,  0.176956,
   16.7066,  0.221962,
   16.7471,  0.210161,
   16.7875,  0.121388,
   16.8279,  0.165448,
   16.8684,  0.231427,
   16.9088,  0.187461,
   16.9492,    0.2866,
   16.9897,  0.186658,
   17.0301,  0.306835,
   17.0705,  0.109544,
   17.1109,  0.262616,
   17.1514,  0.131388,
   17.1918,  0.207677,
   17.2322,  0.228368,
   17.2727,  0.142025,
   17.3131,  0.174058,
   17.3535,  0.162962,
   17.3939,  0.130496,
   17.4344,  0.172988,
   17.4748,  0.205696,
   17.5152,  0.162333,
   17.5557,  0.237686,
   17.5961,   0.19419,
   17.6365,   0.16132,
    17.677,  0.139777,
   17.7174,  0.161689,
   17.7578,  0.128979,
   17.7982,  0.182392,
   17.8387,  0.182131,
   17.8791,  0.150151,
   17.9195,  0.150133,
     17.96,  0.149419,
   18.0004,  0.106613,
   18.0408, 0.0639453,
   18.0813,  0.191472,
   18.1217, 0.0639149,
   18.1621,  0.202061,
   18.2025,    0.1586,
    18.243,   0.12703,
   18.2834,  0.169413,
   18.3238,  0.137308,
   18.3643,  0.169253,
   18.4047,  0.136824,
   18.4451,  0.230953,
   18.4855,  0.178798,
    18.526,  0.147211,
   18.5664, 0.0734161,
   18.6068,  0.252303,
   18.6473,  0.230225,
   18.6877,   0.18863,
   18.7281,  0.177839,
   18.7686,  0.146251,
    18.809,  0.239543,
   18.8494,  0.228757,
   18.8898,  0.156588,
   18.9303,  0.134955,
   18.9707,  0.217904,
   19.0111,  0.103752,
   19.0516,  0.144467,
    19.092,  0.186408,
   19.1324,  0.196741,
   19.1728,  0.123403,
   19.2133,  0.144301,
   19.2537,  0.123701,
   19.2941,  0.143854,
   19.3346,  0.216277,
    19.375,   0.10246,
   19.4154,  0.173705,
   19.4559,  0.204732,
   19.4963,  0.102366,
   19.5367,  0.102144,
   19.5771,    0.1125,
   19.6176,  0.203501,
    19.658,  0.122197,
   19.6984,  0.101785,
   19.7389,   0.12199,
   19.7793,  0.172584,
   19.8197,  0.202353,
   19.8601, 0.0404751,
   19.9006,  0.111319,
    19.941,  0.111043,
   19.9814,  0.141408,
   20.0219, 0.0706004,
   20.0623,  0.121056,
   20.1027,  0.171574,
   20.1432,  0.100778,
   20.1836, 0.0907413,
    20.224,  0.110906,
   20.2644,  0.130938,
   20.3049,  0.130968,
   20.3453,  0.130982,
   20.3857,   0.13085,
   20.4262,  0.120798,
   20.4666,  0.151032,
    20.507,  0.120676,
   20.5474, 0.0704182,
   20.5879,   0.12073,
   20.6283,  0.180893,
   20.6687, 0.0804238,
   20.7092, 0.0703709,
   20.7496, 0.0803428,
     20.79,  0.100451,
   20.8305,  0.120541,
   20.8709,  0.140521,
   20.9113,   0.18065,
   20.9517,  0.130484,
   20.9922,  0.110348,
   21.0326,  0.080226,
    21.073, 0.0802349,
   21.1135,  0.090234,
   21.1539,  0.170366,
   21.1943, 0.0801632,
   21.2347,  0.120218,
   21.2752,  0.120191,
   21.3156,  0.150189,
    21.356,  0.110126,
   21.3965,  0.110089,
   21.4369,  0.080038,
   21.4773,  0.130062,
   21.5178, 0.0900126,
   21.5582,  0.169948,
   21.5986, 0.0699864,
    21.639,  0.129917,
   21.6795,  0.149854,
   21.7199,  0.129888,
   21.7603,  0.189752,
   21.8008,  0.169702,
   21.8412,  0.099847,
   21.8816,  0.159648,
    21.922,  0.129686,
   21.9625,  0.229469,
   22.0029,  0.129628,
   22.0433, 0.0897324,
   22.0838,  0.149537,
   22.1242,  0.109624,
   22.1646,  0.209213,
   22.2051,  0.129498,
   22.2455,  0.179246,
   22.2859,  0.139382,
   22.3263,   0.10949,
   22.3668,  0.149272,
   22.4072,  0.119391,
   22.4476,  0.159153,
   22.4881,  0.159117,
   22.5285,  0.198831,
   22.5689,  0.129211,
   22.6093,  0.129211,
   22.6498,   0.12914,
   22.6902,  0.139058,
   22.7306,  0.148958,
   22.7711,   0.11914,
   22.8115,  0.119113,
   22.8519,  0.119087,
   22.8924, 0.0992063,
   22.9328,   0.12894,
   22.9732,  0.128911,
   23.0136, 0.0991514,
   23.0541, 0.0396474,
   23.0945,   0.12884,
   23.1349,  0.188242,
   23.1754,  0.178295,
   23.2158,  0.118837,
   23.2562,  0.138597,
   23.2966, 0.0989873,
   23.3371,  0.148448,
   23.3775,   0.13849,
   23.4179,  0.118706,
   23.4584,  0.108778,
   23.4988,  0.138399,
   23.5392,  0.128513,
   23.5797, 0.0889315,
   23.6201, 0.0988019,
   23.6605,  0.138292,
   23.7009,  0.108634,
   23.7414, 0.0987148,
   23.7818,  0.118484,
   23.8222,  0.148023,
   23.8627,  0.147991,
   23.9031,  0.167704,
   23.9435, 0.0887555,
   23.9839,  0.128146,
   24.0244, 0.0492923,
   24.0648, 0.0985738,
   24.1052,  0.108336,
   24.1457,  0.108395,
   24.1861,   0.11851,
   24.2265, 0.0893845,
    24.267,  0.100204,
   24.3074,  0.120961,
   24.3478, 0.0608568,
   24.3882,  0.143296,
   24.4287,  0.144119,
   24.4691, 0.0828958,
   24.5095,  0.125519,
     24.55,  0.147297,
   24.5904,  0.127045,
   24.6308, 0.0962496,
   24.6712,  0.139861,
   24.7117,  0.119087,
   24.7521,   0.10937,
   24.7925,   0.12106,
    24.833, 0.0775427,
   24.8734,  0.145518,
   24.9138, 0.0901119,
   24.9543,  0.102042,
   24.9947, 0.0687673,
   25.0351, 0.0807549,
   25.0755,  0.104527,
    25.116,  0.105691,
   25.1564, 0.0827456,
   25.1968,  0.142848,
   25.2373,  0.120382,
   25.2777, 0.0363636,
   25.3181,  0.134295,
   25.3585,  0.185223,
    25.399, 0.0870608,
   25.4394,  0.112764,
   25.4798,   0.13944,
   25.5203,  0.191554,
   25.5607, 0.0900714,
   25.6011,  0.130224,
   25.6416,  0.157458,
    25.682,  0.105793,
   25.7224,   0.13388,
   25.7628,  0.121453,
   25.8033, 0.0952082,
   25.8437,  0.137746,
   25.8841,  0.124989,
   25.9246,  0.112021,
    25.965, 0.0425526,
   26.0054,   0.17165,
   26.0458, 0.0865844,
   26.0863,   0.13157,
   26.1267,  0.132739,
   26.1671,  0.104167,
   26.2076, 0.0754058,
    26.248,  0.106554,
   26.2884, 0.0460883,
   26.3289,  0.171339,
   26.3693, 0.0943591,
   26.4097, 0.0476306,
   26.4501,  0.080525,
   26.4906, 0.0650626,
    26.531, 0.0985593,
   26.5714,  0.116696,
   26.6119,  0.117902,
   26.6523, 0.0850945,
   26.6927, 0.0518239,
   26.7331,  0.139731,
   26.7736,         0,
    26.814,  0.107543,
   26.8544,  0.054413,
   26.8949,  0.183417,
   26.9353,  0.111742,
   26.9757, 0.0565877,
   27.0162, 0.0763333,
   27.0566, 0.0969433,
    27.097,  0.157148,
   27.1374, 0.0994373,
   27.1779,  0.101074,
   27.2183, 0.0614898,
   27.2587, 0.0415247,
   27.2992, 0.0844772,
   27.3396, 0.0428543,
     27.38,  0.108589,
   27.4204, 0.0884345,
   27.4609,  0.134677,
   27.5013, 0.0910612,
   27.5417,  0.115976,
   27.5822, 0.0942682,
   27.6226,  0.143553,
    27.663,  0.219487,
   27.7035,  0.148875,
   27.7439,  0.201625,
   27.7843, 0.0771709,
   27.8247,  0.209515,
   27.8652,  0.133124,
   27.9056,  0.272147,
    27.946,  0.110912,
   27.9865, 0.0564511,
   28.0269,  0.115557,
   28.0673,  0.058937,
   28.1077,  0.120084,
   28.1482, 0.0923508,
   28.1886,  0.125768,
    28.229,         0,
   28.2695,  0.164658,
   28.3099,  0.269591,
   28.3503,  0.137746,
   28.3908,  0.212494,
   28.4312,   0.07258,
   28.4716,  0.111487,
    28.512, 0.0766433,
   28.5525, 0.0393473,
   28.5929,  0.201693,
   28.6333,  0.125183,
   28.6738,   0.25768,
   28.7142,  0.132456,
   28.7546,  0.137464,
    28.795,  0.378365,
   28.8355, 0.0974701,
   28.8759,  0.253886,
   28.9163,  0.210252,
   28.9568,  0.163239,
   28.9972,  0.341827,
   29.0376,  0.236916,
   29.0781,  0.123177,
   29.1185,  0.194658,
   29.1589,  0.135662,
   29.1993, 0.0709434,
   29.2398,   0.15071,
   29.2802, 0.0793563,
   29.3206, 0.0836497,
   29.3611,         0,
   29.4015,    0.1912,
   29.4419,         0,
   29.4823,  0.111256,
   29.5228,  0.120205,
   29.5632,         0,
   29.6036,  0.292093,
   29.6441,         0,
   29.6845,  0.180791,
   29.7249,         0,
   29.7654,  0.248401,
   29.8058,         0,
   29.8462,  0.391584,
   29.8866,         0,
   29.9271,         0,
